Data from 31_USB2G479881__0__16-58-49-989.txt Node

Date: Thu Feb 26 16:58:49 GMT 2026
User: Student
Spectrometer: USB2G47988
Scans to average: 40
Trigger mode: 4
Integration Time (sec): 2.000000E-1
Electric dark correction enabled: true
Boxcar width: 0
XAxis mode: Wavelengths
Number of Pixels in Spectrum: 651
>>>>>Begin Spectral Data<<<<<
350	-0.17019
351	-0.31397
352	1.19499
353	-0.88523
354	0.17441
355	1.84908
356	0.72761
357	0.39162
358	0.42674
359	-0.09514
360	0.99165
361	2.86478
362	3.28393
363	0.22603
364	-0.27069
365	4.58887
366	4.07525
367	2.17766
368	6.34086
369	3.04046
370	1.97972
371	4.30841
372	2.66452
373	2.47791
374	2.38855
375	2.05268
376	1.16852
377	9.26658
378	3.26558
379	2.29379
380	3.81052
381	3.28544
382	6.17366
383	1.58561
384	7.34237
385	3.91984
386	6.15794
387	3.26673
388	7.57346
389	5.32015
390	1.94074
391	3.70978
392	3.10398
393	7.37283
394	6.27664
395	3.17537
396	2.6341
397	9.25126
398	8.7784
399	5.62309
400	5.13309
401	6.72723
402	5.2442
403	3.93176
404	2.45537
405	2.51987
406	10.045
407	2.8727
408	4.38781
409	2.91256
410	5.81551
411	3.62717
412	3.6095
413	3.08242
414	3.68019
415	3.50479
416	4.14397
417	4.04556
418	4.37635
419	3.54868
420	3.46611
421	5.71742
422	7.75869
423	4.77059
424	3.33813
425	25.18565
426	5.98453
427	3.34466
428	4.20453
429	10.78032
430	7.79875
431	7.34231
432	3.03582
433	7.49608
434	3.65675
435	4.11171
436	10.08702
437	5.08183
438	6.83415
439	15.81283
440	6.12723
441	3.8151
442	4.04399
443	8.15026
444	4.39725
445	-2.25347
446	16.43405
447	3.36155
448	5.3844
449	5.19935
450	4.36374
451	3.87677
452	3.22342
453	4.70746
454	9.36259
455	3.80938
456	5.05031
457	4.63414
458	3.12646
459	5.82497
460	4.1047
461	3.14136
462	4.44497
463	3.51304
464	3.30492
465	3.96622
466	3.04815
467	4.64025
468	8.55933
469	5.42179
470	4.19102
471	2.83333
472	3.2108
473	4.2663
474	4.38356
475	3.50672
476	3.3007
477	5.23834
478	4.91484
479	5.43465
480	2.95679
481	6.52904
482	4.42006
483	3.4303
484	2.62874
485	2.58613
486	3.5653
487	2.91162
488	3.24213
489	12.84075
490	4.41733
491	3.72896
492	6.97088
493	3.01821
494	3.02237
495	3.45627
496	3.07466
497	5.8681
498	7.74589
499	3.96595
500	2.80437
501	5.76701
502	2.79196
503	3.18126
504	6.73398
505	4.31578
506	2.36573
507	2.5899
508	2.75026
509	9.50527
510	9.37739
511	2.14402
512	2.33542
513	5.5498
514	3.15415
515	3.5689
516	2.87581
517	2.01016
518	5.32207
519	1.59326
520	7.25332
521	3.40795
522	6.23885
523	3.1636
524	3.1793
525	28.65386
526	7.60763
527	6.49011
528	4.32446
529	9.77679
530	3.79057
531	3.15925
532	2.93929
533	5.93046
534	2.53576
535	6.66064
536	9.10217
537	17.49138
538	3.35734
539	2.95498
540	3.42073
541	2.33568
542	1.97238
543	2.80999
544	2.44701
545	3.89455
546	17.83045
547	3.37038
548	4.63634
549	4.59873
550	5.01228
551	2.47925
552	2.23839
553	2.27518
554	2.09962
555	4.62776
556	4.552
557	1.89815
558	6.22326
559	2.6953
560	1.95044
561	2.90957
562	2.46942
563	4.08134
564	4.37407
565	2.23016
566	2.43848
567	2.0739
568	0.73606
569	4.23043
570	1.12831
571	1.3919
572	1.64334
573	1.57641
574	1.15206
575	2.21267
576	1.30613
577	1.72121
578	2.41406
579	0.73278
580	2.63654
581	2.32087
582	7.90652
583	2.56718
584	1.00829
585	5.59075
586	0.85877
587	1.99021
588	1.23326
589	1.10205
590	3.45776
591	0.96665
592	1.44483
593	1.41532
594	6.92964
595	1.23094
596	4.07487
597	7.1703
598	8.63359
599	1.82448
600	3.71953
601	5.88503
602	8.39857
603	2.04217
604	3.01504
605	8.98316
606	1.97211
607	1.29277
608	3.60937
609	3.36315
610	2.10054
611	1.29574
612	0.90223
613	2.21948
614	21.87141
615	4.50785
616	1.7001
617	3.37653
618	2.458
619	2.33563
620	2.6836
621	2.32394
622	0.95902
623	1.50628
624	0.57336
625	2.18486
626	1.41362
627	4.113
628	6.18596
629	5.33822
630	1.72096
631	3.51488
632	25.00788
633	3.87044
634	5.33707
635	1.74822
636	1.85688
637	1.70588
638	0.91424
639	2.12443
640	7.55134
641	2.25678
642	1.85083
643	2.06119
644	2.42045
645	26.75274
646	8.0446
647	4.66983
648	4.51753
649	2.44578
650	5.17999
651	5.10665
652	5.94786
653	11.47129
654	23.20907
655	183.71198
656	111.41405
657	24.21035
658	11.76679
659	13.39854
660	5.28794
661	2.56067
662	1.98141
663	11.5166
664	1.6814
665	1.11136
666	1.42756
667	1.90186
668	0.58255
669	1.3556
670	0.94763
671	1.95535
672	0.38059
673	2.30336
674	1.46481
675	9.53878
676	4.48126
677	4.73283
678	7.89945
679	5.01669
680	1.27815
681	2.30408
682	5.4663
683	1.67219
684	4.47636
685	12.70817
686	1.12746
687	1.15477
688	0.89299
689	0.14529
690	4.95388
691	1.14673
692	0.16608
693	3.18008
694	0.81868
695	4.47724
696	0.12177
697	-0.15157
698	-0.32206
699	2.63913
700	-0.20221
701	0.41845
702	1.40859
703	0.56127
704	1.3196
705	5.73557
706	0.38374
707	0.38807
708	1.33177
709	-0.54788
710	-0.34864
711	4.99963
712	0.86727
713	7.74627
714	-4.945
715	12.9646
716	1.99565
717	0.98892
718	1.50991
719	5.51967
720	0.51218
721	-0.10749
722	-0.24713
723	2.16673
724	0.1439
725	3.37779
726	1.53445
727	2.50044
728	0.35431
729	-0.02282
730	20.03317
731	3.2828
732	1.29131
733	1.07556
734	0.59203
735	4.32315
736	2.91406
737	6.4591
738	1.13898
739	3.32402
740	0.1506
741	17.78695
742	1.44263
743	5.52826
744	4.07239
745	0.88125
746	4.73308
747	3.86469
748	6.61232
749	2.63815
750	1.33701
751	2.48874
752	0.8441
753	1.99452
754	-0.59962
755	4.97963
756	1.30504
757	12.04699
758	11.88768
759	9.54737
760	0.9248
761	1.15529
762	9.3637
763	0.96345
764	0.76415
765	10.15947
766	2.57769
767	9.90452
768	0.47823
769	1.48055
770	0.2237
771	1.0441
772	2.3408
773	-0.34041
774	1.19699
775	-0.35081
776	11.58213
777	1.27699
778	1.69264
779	0.33737
780	1.36883
781	2.08284
782	0.43578
783	5.52574
784	3.55504
785	-0.57905
786	3.70858
787	0.47637
788	9.32186
789	0.05901
790	1.16622
791	-0.33856
792	0.53927
793	1.72923
794	0.39563
795	0.18527
796	1.15928
797	1.43003
798	0.70698
799	0.84961
800	1.80882
801	0.67759
802	1.32287
803	8.88032
804	0.57263
805	-0.49401
806	1.57395
807	1.81077
808	2.60804
809	0.64572
810	4.83647
811	11.86955
812	11.46098
813	0.72635
814	1.22189
815	1.56928
816	1.04508
817	3.57548
818	1.41692
819	0.7394
820	0.55001
821	15.71039
822	2.7577
823	-0.07673
824	2.78001
825	0.64297
826	0.39335
827	-0.67719
828	0.63141
829	0.59981
830	1.30328
831	2.16241
832	-0.3645
833	2.36319
834	0.66049
835	2.16599
836	0.18519
837	0.46398
838	1.07369
839	2.24844
840	6.65754
841	1.89824
842	2.67327
843	1.87973
844	1.03811
845	0.38021
846	-1.04407
847	9.38121
848	1.95711
849	0.10921
850	2.22454
851	0.23434
852	0.57638
853	-0.01918
854	0.11817
855	0.14955
856	3.79774
857	0.59544
858	0.59233
859	1.06281
860	0.84594
861	0.84673
862	4.59942
863	0.53039
864	-0.25871
865	3.68577
866	5.87379
867	2.94364
868	0.01815
869	4.45961
870	2.48803
871	7.13556
872	14.04793
873	-0.06551
874	1.38067
875	1.74846
876	5.46977
877	1.45218
878	-0.04396
879	5.62353
880	2.04787
881	1.06589
882	3.86416
883	0.0762
884	3.61578
885	-1.01328
886	0.36338
887	6.89508
888	2.2597
889	0.2857
890	0.94378
891	1.76202
892	7.19548
893	2.54935
894	9.99804
895	3.29669
896	1.59168
897	0.32114
898	0.78483
899	1.07779
900	5.03509
901	33.12246
902	1.48271
903	-0.18466
904	0.11973
905	1.31315
906	1.6344
907	-0.14354
908	12.5936
909	2.63262
910	-0.61577
911	0.49033
912	0.84179
913	0.58926
914	0.44821
915	1.82984
916	1.04462
917	1.35493
918	0.36774
919	0.89439
920	-0.90936
921	4.13898
922	5.68911
923	2.9906
924	1.97573
925	1.67368
926	0.19144
927	2.17679
928	-0.23357
929	1.58189
930	0.40119
931	0.54176
932	1.47593
933	0.40083
934	3.02539
935	1.58164
936	0.93484
937	1.11171
938	2.93235
939	4.97726
940	0.54782
941	0.29844
942	0.07033
943	0.44891
944	0.93561
945	13.31551
946	0.88739
947	3.3232
948	2.48996
949	1.62843
950	4.94333
951	2.81683
952	-0.32957
953	0.56846
954	1.65989
955	1.75724
956	-0.05245
957	0.22318
958	2.10402
959	0.75407
960	0.54593
961	0.98486
962	0.14048
963	3.02181
964	0.8483
965	0.73283
966	-0.88956
967	0.11461
968	0.55083
969	7.52315
970	0.25987
971	2.59267
972	0.12216
973	2.14497
974	1.4846
975	-0.04967
976	2.79427
977	2.58073
978	21.98341
979	2.45255
980	2.20482
981	1.65276
982	3.9779
983	-0.18096
984	9.14928
985	0.45999
986	4.39888
987	0.95884
988	5.87831
989	1.46523
990	0.78963
991	0.50824
992	7.65251
993	1.51223
994	2.98502
995	0.601
996	0.99324
997	4.65671
998	4.85779
999	5.71412
1000	0.52798
