Data from 27_USB2G479881__0__17-36-28-895.txt Node

Date: Wed Feb 18 17:36:28 GMT 2026
User: Student
Spectrometer: USB2G47988
Scans to average: 10
Trigger mode: 4
Integration Time (sec): 5.000000E-1
Electric dark correction enabled: true
Boxcar width: 0
XAxis mode: Wavelengths
Number of Pixels in Spectrum: 651
>>>>>Begin Spectral Data<<<<<
350	0.49652
351	1.16438
352	0.67683
353	-1.06508
354	-1.27265
355	2.68143
356	0.60152
357	0.22904
358	-0.66403
359	-0.60127
360	-0.36301
361	8.53777
362	4.34765
363	-1.81864
364	-2.18187
365	4.91151
366	8.4171
367	1.88495
368	8.93421
369	7.30921
370	0.29422
371	6.53414
372	3.46225
373	2.5343
374	3.063
375	1.11246
376	0.56681
377	14.15093
378	1.97892
379	0.32311
380	2.25182
381	2.42818
382	8.13801
383	-0.77021
384	6.26156
385	5.15277
386	7.37884
387	3.46226
388	11.66458
389	6.09193
390	2.39421
391	1.35575
392	2.31427
393	13.35627
394	11.55872
395	1.80589
396	1.45608
397	16.52157
398	9.18347
399	3.27838
400	6.86474
401	12.41023
402	4.19111
403	3.6555
404	1.87715
405	2.46903
406	17.14549
407	1.37353
408	5.9106
409	3.56939
410	6.73983
411	4.7945
412	5.09229
413	2.94739
414	0.41072
415	2.80415
416	3.78515
417	2.54671
418	3.08585
419	3.89056
420	3.31371
421	6.06947
422	9.88571
423	3.14899
424	6.46335
425	53.90798
426	3.5562
427	2.22451
428	0.90975
429	17.36434
430	7.36249
431	3.67612
432	3.10394
433	5.38235
434	3.51302
435	1.94876
436	11.43656
437	2.27557
438	10.16098
439	33.6627
440	3.28723
441	0.58042
442	3.09481
443	14.20526
444	3.6163
445	-9.2635
446	3.50066
447	0.96036
448	2.75491
449	7.14384
450	2.52057
451	3.78582
452	2.34777
453	2.39826
454	10.24617
455	2.45074
456	4.31271
457	3.9464
458	2.39533
459	9.05234
460	2.56576
461	0.62269
462	3.68019
463	1.06988
464	-0.54127
465	2.51144
466	1.92653
467	2.8256
468	8.90132
469	4.57807
470	2.99222
471	1.77956
472	0.89761
473	5.03882
474	4.26992
475	1.96935
476	1.07868
477	4.95122
478	3.62955
479	6.87655
480	1.14307
481	5.54256
482	6.3736
483	0.18689
484	0.49892
485	1.61278
486	3.74086
487	4.38829
488	1.54403
489	20.72857
490	3.55964
491	1.56703
492	8.9889
493	2.28221
494	1.57571
495	3.01172
496	0.90699
497	5.10287
498	11.40469
499	2.02439
500	3.06291
501	7.17803
502	0.9695
503	-0.1811
504	11.34078
505	4.56228
506	1.20375
507	1.81387
508	0.14011
509	-4.40626
510	14.12054
511	1.64937
512	-0.87812
513	7.60589
514	4.93138
515	3.04421
516	2.0135
517	0.80113
518	0.56654
519	1.07256
520	12.68568
521	-0.64987
522	4.27502
523	3.94521
524	2.58217
525	69.643
526	4.2617
527	13.06524
528	3.35567
529	14.1408
530	3.95008
531	2.54795
532	1.42131
533	8.25037
534	-0.27569
535	4.67845
536	16.78921
537	25.57912
538	2.97259
539	2.69524
540	2.4537
541	1.04815
542	1.82593
543	1.81946
544	3.9877
545	4.77168
546	39.92186
547	1.5347
548	5.09401
549	5.8814
550	5.58606
551	3.18235
552	1.25867
553	0.67534
554	-0.53999
555	7.69033
556	2.77256
557	1.44535
558	5.871
559	2.85371
560	0.42063
561	4.16937
562	0.23467
563	4.54309
564	3.74864
565	-0.1694
566	1.93327
567	1.73529
568	0.68247
569	6.08929
570	-0.45566
571	0.4458
572	1.12852
573	0.56849
574	0.67144
575	0.08438
576	0.25256
577	1.67944
578	0.45967
579	-0.38149
580	2.7653
581	0.41974
582	16.89684
583	0.62375
584	-2.18522
585	4.76256
586	0.23045
587	2.74659
588	-2.41811
589	-1.03848
590	4.82968
591	-1.21352
592	1.59632
593	-2.14423
594	7.65302
595	0.31356
596	1.97402
597	10.60203
598	10.76667
599	1.29778
600	9.31558
601	5.2446
602	14.83475
603	0.89287
604	4.7208
605	16.59098
606	1.40471
607	-0.42681
608	6.58726
609	5.11373
610	-0.62114
611	-1.62906
612	-4.55559
613	0.46624
614	60.1315
615	2.77228
616	-0.72087
617	4.70752
618	3.10798
619	0.42388
620	-0.0199
621	0.40327
622	0.5066
623	1.49469
624	1.75024
625	-0.8578
626	1.9538
627	4.95739
628	7.64519
629	6.93212
630	0.48029
631	4.89033
632	59.92209
633	4.35913
634	10.39731
635	1.00921
636	0.80222
637	2.13235
638	1.3001
639	3.12655
640	7.10378
641	-0.93151
642	5.08315
643	2.22284
644	2.66361
645	39.35574
646	2.74622
647	8.9556
648	8.41869
649	4.67491
650	10.36204
651	8.73609
652	8.29578
653	21.01914
654	157.81532
655	166.34152
656	68.96281
657	17.41354
658	14.40509
659	27.37769
660	7.49831
661	4.1184
662	2.10786
663	31.15435
664	1.4859
665	3.02106
666	1.3459
667	2.02993
668	1.25423
669	1.08852
670	1.71696
671	4.38891
672	1.2721
673	3.17145
674	-0.5476
675	9.76243
676	9.47553
677	2.17908
678	14.47295
679	3.82082
680	-0.67407
681	2.72397
682	12.47368
683	2.22365
684	9.92442
685	28.62217
686	1.43126
687	-0.78631
688	1.45683
689	-1.10336
690	10.73066
691	-0.47229
692	0.22328
693	3.75805
694	2.42011
695	4.41906
696	-1.13262
697	-1.17864
698	-1.69098
699	0.90538
700	-0.23976
701	-0.35069
702	1.73572
703	0.69928
704	0.81757
705	12.2405
706	-0.9759
707	0.45972
708	0.46882
709	-0.05815
710	-3.00582
711	6.25075
712	-0.84086
713	17.197
714	-11.25621
715	-17.5824
716	1.24507
717	-0.75986
718	-1.01535
719	7.8465
720	0.4095
721	-0.03142
722	-2.09161
723	0.23674
724	-1.49282
725	1.68733
726	0.88093
727	5.00887
728	0.78641
729	-2.08398
730	54.3992
731	2.68978
732	1.30845
733	-2.40153
734	-2.64387
735	8.82512
736	5.28115
737	5.99388
738	1.5464
739	2.16197
740	-0.34129
741	38.82705
742	0.01936
743	8.93396
744	7.55973
745	0.46003
746	8.44394
747	4.74646
748	16.99285
749	4.43327
750	2.30932
751	3.02367
752	0.64336
753	0.12871
754	-0.70445
755	10.64455
756	1.19201
757	30.25338
758	17.27701
759	15.78736
760	-0.33437
761	1.62729
762	79.29927
763	-1.0832
764	-0.18069
765	22.7939
766	1.79492
767	16.63435
768	0.51562
769	2.91194
770	0.46852
771	-0.83307
772	1.06954
773	-1.26001
774	-0.20531
775	-2.98584
776	20.11934
777	-1.16082
778	2.44856
779	-0.32989
780	2.16228
781	2.93846
782	-2.30687
783	6.27913
784	4.63275
785	-1.47336
786	7.1249
787	-2.03406
788	6.57366
789	0.26629
790	0.15558
791	0.55482
792	-3.31148
793	0.5626
794	-0.57677
795	1.66498
796	2.02674
797	1.71522
798	-1.23004
799	1.33146
800	3.30224
801	-1.23785
802	0.13951
803	19.83846
804	-0.41239
805	-0.9641
806	2.35771
807	3.18625
808	2.4749
809	3.06158
810	9.96867
811	29.04297
812	14.39959
813	-2.3777
814	2.03448
815	1.08606
816	0.47631
817	9.63809
818	3.23003
819	0.86444
820	-0.33423
821	41.95618
822	2.16456
823	-2.84297
824	3.43888
825	-0.54648
826	0.47763
827	-3.06128
828	1.89599
829	-0.6848
830	2.23458
831	1.93316
832	-2.76874
833	4.65365
834	1.10557
835	5.05047
836	-0.77709
837	-0.33316
838	0.5652
839	2.24591
840	18.57861
841	2.8381
842	0.48327
843	1.76294
844	5.36714
845	-1.31817
846	-6.17129
847	-4.24835
848	-0.03807
849	-1.26939
850	2.00011
851	-0.94505
852	-1.90512
853	-0.92244
854	-1.67753
855	0.0898
856	3.76023
857	-0.2475
858	-0.00635
859	1.01228
860	-0.65354
861	0.63008
862	3.9576
863	-0.29846
864	-0.41903
865	3.77664
866	10.00411
867	3.37876
868	1.51831
869	5.20419
870	0.96896
871	9.88488
872	5.71975
873	-0.99178
874	1.07036
875	2.62927
876	17.40835
877	0.46529
878	-0.65763
879	9.97614
880	2.5239
881	-0.94925
882	2.04338
883	-2.00022
884	4.9814
885	-1.64694
886	-8.8881
887	-0.06528
888	2.52202
889	-0.49459
890	1.02563
891	36.58264
892	21.89233
893	3.77866
894	21.07481
895	3.69012
896	0.81691
897	0.53981
898	-0.22647
899	0.48717
900	7.12675
901	67.21572
902	0.11925
903	1.2913
904	-2.27854
905	-0.06643
906	3.84755
907	-2.07144
908	32.95902
909	3.3196
910	-2.54082
911	-0.22032
912	-0.81965
913	0.20283
914	1.39887
915	1.32071
916	-1.09997
917	2.80659
918	1.27093
919	-0.11706
920	-5.11629
921	1.47962
922	1.6419
923	5.42194
924	2.77832
925	1.03053
926	-1.12566
927	4.99222
928	-2.39417
929	3.08954
930	-0.84717
931	-0.0803
932	2.08543
933	-0.03834
934	0.11653
935	-1.15404
936	-0.43186
937	-0.43286
938	1.90876
939	13.10895
940	-1.39371
941	-0.29359
942	0.23207
943	-0.86872
944	1.9939
945	6.01045
946	-3.32616
947	2.37376
948	3.99599
949	-1.19949
950	11.9553
951	4.21832
952	-1.37391
953	0.69658
954	3.02312
955	0.59626
956	-0.33612
957	-0.1413
958	4.74139
959	-0.01257
960	0.17469
961	-2.48095
962	-1.01824
963	4.13709
964	-1.07727
965	0.54278
966	-2.96412
967	-1.559
968	-1.18735
969	10.34545
970	-0.97211
971	3.02554
972	-1.22599
973	4.35478
974	3.4754
975	-0.64214
976	2.32198
977	5.08116
978	30.80854
979	1.44146
980	-0.24256
981	0.86199
982	4.44605
983	-1.07991
984	16.53514
985	-1.49863
986	4.3548
987	-1.0587
988	11.92038
989	0.80299
990	-0.62024
991	-0.38099
992	16.87952
993	-0.77561
994	2.19143
995	-2.06569
996	-0.15545
997	3.57253
998	3.11082
999	14.33848
1000	-0.82276
